# t 	[A] 	[B] 	[P] 	[Q] 	[X] 	[Y] 	[Z] 	
0.0	0.05999999999997572	0.059999999999924156	1.0062639999999998e-13	9.9856e-19	1.5802377320288e-10	3.019999472336e-07	4.786002798e-08	
0.09999999999999999	0.059999997961743656	0.059997556123548325	3.159772463049128e-07	1.7203748351796681e-07	1.7880587514702683e-06	9.590649143313259e-10	2.4768001405902077e-06	
0.19999999999999998	0.05999999784486353	0.05973138975201013	1.3322105151645726e-05	0.00012494811193295566	5.396387248690772e-06	2.9568675985930066e-08	0.0002556084341625875	
0.3	0.05999999748341933	0.059489252399435755	4.9579043998033374e-05	0.00022820998784730406	4.753772036532441e-06	6.062710575046264e-08	0.0004614577894608256	
0.39999999999999997	0.05999999686129424	0.05927971326670965	0.0001038645396141818	0.0003061895563271609	4.049516436520701e-06	9.511731919208319e-08	0.0006166769363572075	
0.5	0.059999995910675466	0.05910958397753169	0.00017111012714087225	0.0003581656923330044	2.9828473129136522e-06	1.5052035993984124e-07	0.0007195052349669327	
0.6	0.05999986544440308	0.05907356489312747	0.00019532297847097145	0.00036569067351746034	5.0565235287349596e-11	4.737005471554226e-05	0.000684091933686781	
0.7	0.05999922302071536	0.05907356250903671	0.00019661021009157787	0.00036569067352830236	5.0383199931326364e-11	0.00011118292414446993	0.0006189942167186762	
0.7999999999999999	0.0599980968464182	0.05907356012924962	0.00019886493850675103	0.0003656906735391444	5.033699384739081e-11	0.00016783342675397443	0.0005600913654884423	
0.8999999999999999	0.0599965416739534	0.05907355775096176	0.00020197766174235245	0.0003656906735499864	5.031526916366994e-11	0.00021802058438912436	0.0005067938629221911	
1.0	0.05999460691340175	0.05907355537347307	0.00020584956034795461	0.0003656906735608284	5.030211014296515e-11	0.00026237663624493134	0.00045856828997005786	
1.0999999999999999	0.059992337140729844	0.05907355299644581	0.00021039148266961013	0.00036569067357167045	5.029285639637055e-11	0.0003014733921374999	0.000414931988746023	
1.2	0.059989772558170874	0.05907355061987465	0.00021552302437960051	0.00036569067358251247	5.0285661555669935e-11	0.00033582798355635704	0.00037544823222331655	
1.3	0.05998694941117719	0.05907354824347429	0.00022117169464842373	0.0003656906735933545	5.027965654784757e-11	0.00036590806839830473	0.0003397218534090752	
1.4	0.05998390036600088	0.05907354586759702	0.00022727216101761237	0.0003656906736041965	5.027438432471377e-11	0.0003921365410582516	0.0003073952904111962	
1.5	0.05998065485157404	0.05907354349171975	0.00023376556564990643	0.00036569067361503854	5.026958553327929e-11	0.0004148957947800235	0.00027814500785110035	
1.5999999999999999	0.059977239369037254	0.05907354111604351	0.0002405989062830284	0.00036569067362588056	5.0265104854533494e-11	0.0004345315787553311	0.00025167825881776184	
1.7	0.05997367777194374	0.059073538740860125	0.0002477244758212602	0.0003656906736367226	5.0260845610143935e-11	0.0004513564884438516	0.00022773015495978019	
1.7999999999999998	0.05996999151990411	0.05907353636567674	0.0002550993550568927	0.0003656906736475646	5.025674595631863e-11	0.00046565312394563317	0.00020606101539371327	
1.9	0.05996619990815319	0.05907353399049336	0.00026268495352290084	0.0003656906736584066	5.025276560055881e-11	0.00047767694795735466	0.00018645396789643338	
2.0	0.059962320275332937	0.05907353161581537	0.0002704465939422137	0.00036569067366924864	5.024887801210828e-11	0.0004876588718551567	0.00016871277837384499	
2.1	0.0599583681915205	0.059073529241325876	0.000278353136160793	0.00036569067368009067	5.0245065665382723e-11	0.0004958075957401374	0.0001526598868828322	
2.1999999999999997	0.05995435762839157	0.05907352686683638	0.0002863766368358496	0.0003656906736909327	5.02413170373416e-11	0.0005023117258314281	0.00013813463055030505	
2.3	0.05995030111317998	0.05907352449234689	0.0002944920414991047	0.0003656906737017747	5.0237624659396704e-11	0.0005073416903725239	0.00012499163560385307	
2.4	0.059946209867997986	0.0590735221184379	0.0003026769059316826	0.00036569067371261673	5.023398382467575e-11	0.0005110514732074449	0.00011309936242090406	
2.5	0.05994209393587431	0.0590735197446423	0.0003109111440750393	0.00036569067372345875	5.0230391714175963e-11	0.0005135801823637585	0.00010233878903478665	
2.6	0.05993796229479419	0.05907351737084669	0.0003191767999631228	0.0003656906737343008	5.0226846797248745e-11	0.0005150534693335132	9.260221992177954e-05	
2.6999999999999997	0.0599338229608577	0.05907351499705109	0.00032745784139775477	0.0003656906737451428	5.022334841547876e-11	0.0005155848132518912	8.379220814708854e-05	
2.8	0.059929683081604894	0.05907351262375002	0.0003357399733041811	0.0003656906737559848	5.021989649138777e-11	0.0005152766828243135	7.58205800822318e-05	
2.9	0.059925549020425656	0.0590735102506483	0.00034401046889821323	0.00036569067376682684	5.0216491323375526e-11	0.0005142215876314993	6.86075529328682e-05	
3.0	0.059921426432926195	0.05907350787754659	0.0003522580169730328	0.00036569067377766886	5.021313344103673e-11	0.0005125030293364831	6.208093624499648e-05	
3.0999999999999996	0.05991732033598423	0.05907350550444487	0.0003604725837738827	0.0003656906737885109	5.02098235031608e-11	0.0005101963623170382	5.617540939789611e-05	
3.1999999999999997	0.0599132351702148	0.059073503131581724	0.0003686452880735362	0.0003656906737993529	5.0206562226205023e-11	0.000507369572341466	5.083186785276376e-05	
3.3	0.05990917485645969	0.0590735007591739	0.0003767682881931344	0.0003656906738101949	5.020335033464539e-11	0.000504083981086488	4.5996831614017156e-05	
3.4	0.059905142846869326	0.05907349838676607	0.00038483467983177765	0.00036569067382103695	5.020018852711424e-11	0.0005003948835540374	4.1621909982990856e-05	
3.5	0.05990114217110212	0.05907349601435825	0.00039283840367610926	0.00036569067383187897	5.0197077453968997e-11	0.0004963521247724792	3.7663317247064876e-05	
3.5999999999999996	0.05989717547809315	0.05907349364195042	0.00040077416185878604	0.000365690673842721	5.019401770312372e-11	0.0004920006215606935	3.408143445709439e-05	
3.6999999999999997	0.05989324507382139	0.05907349127000412	0.0004086373424230608	0.000365690673853563	5.0191009791854654e-11	0.00048738083458371153	3.084041290725051e-05	
3.8	0.05988935295545684	0.059073488898290186	0.0004164239510308637	0.00036569067386440504	5.018805416289746e-11	0.0004825291954308542	2.790781534874838e-05	
3.9	0.05988550084223038	0.05907348652657625	0.00042413054922405165	0.00036569067387524706	5.0185151183599673e-11	0.0004774784929976863	2.5254291346640097e-05	
4.0	0.059881690203337216	0.05907348415486231	0.00043175419861427505	0.0003656906738860891	5.018230114721499e-11	0.0004722582230454907	2.28532835304901e-05	
4.1	0.05987792228316149	0.05907348178314838	0.0004392924104363186	0.0003656906738969311	5.017950427567014e-11	0.00046689490444327785	2.06807617990173e-05	
4.2	0.05987419812407326	0.059073479411833524	0.00044674309995329113	0.0003656906739077731	5.0176760723304414e-11	0.0004614123652641315	1.8714982818518756e-05	
4.3	0.05987051858703001	0.05907347704081348	0.00045410454525104434	0.00036569067391861514	5.017407058121523e-11	0.00045583200160567277	1.6936272408056075e-05	
4.3999999999999995	0.05986688437019672	0.05907347466979343	0.00046137535000295016	0.00036569067392945717	5.01714338819465e-11	0.00045017301173126266	1.5326828633439367e-05	
4.5	0.059863296025766004	0.05907347229877338	0.0004685544098261232	0.0003656906739402992	5.016885060431704e-11	0.0004444526078816601	1.3870543639307056e-05	
4.6	0.059859753975156305	0.059073469927753336	0.0004756408818864609	0.0003656906739511412	5.016632067825298e-11	0.000438686207883035	1.2552842436129622e-05	
4.7	0.05985625852273985	0.05907346755673329	0.0004826341574420016	0.00036569067396198323	5.016384398952247e-11	0.0004328876084750928	1.1360537028668171e-05	
4.8	0.05985280986824191	0.059073465186355194	0.0004895338370443116	0.00036569067397282525	5.0161420384304756e-11	0.000427069142099753	1.0281694425953054e-05	
4.8999999999999995	0.05984940811793869	0.059073462816029036	0.0004963397081437474	0.0003656906739836673	5.015904967354626e-11	0.00042124181872535855	9.305517211777382e-06	
5.0	0.0598460532947671	0.05907346044570288	0.000503051724868988	0.0003656906739945093	5.015673163707737e-11	0.00041541545413144944	8.422235480418618e-06	
5.1	0.059842745347451924	0.05907345807537672	0.000509669989773025	0.0003656906740053513	5.015446602747203e-11	0.0004095987859433674	7.623009056039694e-06	
5.2	0.05983948415874359	0.059073455705050563	0.0005161947373574483	0.00036569067401619334	5.015225257364453e-11	0.0004037995785834753	6.899839017149183e-06	
5.3	0.05983626955285174	0.059073453334724406	0.0005226263192051987	0.00036569067402703536	5.01500909841841e-11	0.00039802471819442794	6.245487640627644e-06	
5.3999999999999995	0.05983310130215295	0.0590734509647325	0.0005289651905675843	0.0003656906740378774	5.014798095043376e-11	0.0003922802984897116	5.653405964088453e-06	
5.5	0.059829979133235754	0.059073448595100234	0.0005352118982666057	0.0003656906740487194	5.0145922149316435e-11	0.0003865716983957081	5.1176682415971765e-06	
5.6	0.05982690273236002	0.059073446225467965	0.0005413670697865079	0.0003656906740595614	5.014391424593172e-11	0.00038090365226698585	4.632912636756225e-06	
5.7	0.059823871750369816	0.0590734438558357	0.0005474314034406345	0.00036569067407040345	5.014195689592176e-11	0.00037528031338257084	4.19428755959043e-06	
5.8	0.05982088580712636	0.05907344148620343	0.0005534056595106043	0.00036569067408124547	5.014004974763048e-11	0.000369705311363189	3.7974031101573918e-06	
5.8999999999999995	0.05981794449549663	0.05907343911657116	0.0005592906522643857	0.0003656906740920875	5.0138192444062054e-11	0.0003641818040887592	3.438287142910471e-06	
6.0	0.059815047384947584	0.05907343674693889	0.0005650872427692679	0.0003656906741029295	5.013638462465846e-11	0.0003587125246401284	3.1133455120925746e-06	
6.1	0.059812194024782404	0.059073434377306624	0.0005707963324229385	0.00036569067411377154	5.013462592690836e-11	0.00035329982373929553	2.819326100283356e-06	
6.199999999999999	0.05980938394704691	0.05907343200824698	0.0005764188571342168	0.00036569067412461356	5.013291598779522e-11	0.00034794570811719114	2.5532862700837315e-06	
6.3	0.0598066166691494	0.0590734296393086	0.0005819557820905081	0.0003656906741354556	5.013125444510583e-11	0.0003426518751970208	2.312563413184044e-06	
6.3999999999999995	0.05980389169620837	0.059073427270370224	0.000587408097055786	0.0003656906741462976	5.0129640938602705e-11	0.00033741974444462643	2.094748302060541e-06	
6.5	0.05980120852316522	0.059073424901431845	0.0005927768121479286	0.0003656906741571396	5.0128075111078536e-11	0.0003322504857034709	1.8976609775939256e-06	
6.6	0.05979856663668202	0.059073422532493466	0.0005980629540493558	0.00036569067416798164	5.012655660930156e-11	0.00032714504480189525	1.7193289312859744e-06	
6.699999999999999	0.05979596551683414	0.05907342016355509	0.000603267562608919	0.00036569067417882367	5.0125085084852697e-11	0.0003221041666927193	1.5579673637135025e-06	
6.8	0.05979340463863769	0.05907341779461671	0.0006083916877973159	0.0003656906741896657	5.012366019488089e-11	0.00031712841636066753	1.4119613216398804e-06	
6.8999999999999995	0.05979088347341027	0.05907341542567833	0.0006134363869820842	0.0003656906742005077	5.0122281602769726e-11	0.00031221819771044563	1.2798495350061156e-06	
7.0	0.05978840148998833	0.05907341305673995	0.0006184027224909482	0.00036569067421134973	5.0120948978729576e-11	0.0003073737706283186	1.1603097920360293e-06	
7.1	0.05978595815581773	0.05907341068780157	0.0006232917594355884	0.00036569067422219175	5.011966200032488e-11	0.0003025952663913995	1.052145706085192e-06	
7.199999999999999	0.05978355293792183	0.0590734083195563	0.0006281045637707785	0.0003656906742330338	5.011842035293657e-11	0.00029788270158243	9.542747417910166e-07	
7.3	0.05978118530376675	0.05907340595131181	0.0006328422005657052	0.0003656906742438758	5.0117223730169694e-11	0.0002932359906528286	8.657173806861371e-07	
7.3999999999999995	0.05977885472203086	0.05907340358306732	0.0006375057324669593	0.0003656906742547178	5.011607183421506e-11	0.00028865495726304054	7.855873178403713e-07	
7.5	0.05977656066328513	0.05907340121482283	0.000642096218334537	0.00036569067426555984	5.011496437616158e-11	0.00028413934451707165	7.130825914159897e-07	
7.6	0.05977430260059806	0.05907339884657834	0.0006466147120336082	0.00036569067427640186	5.011390107627162e-11	0.0002796888241968314	6.474775563578407e-07	
7.699999999999999	0.05977208001006909	0.05907339647833385	0.0006510622613673412	0.0003656906742872439	5.0112881664219464e-11	0.00027530300509204383	5.881156218883326e-07	
7.8	0.059769892371299156	0.05907339411008936	0.0006554399071362566	0.0003656906742980859	5.011190587929846e-11	0.0002709814405121144	5.344026801212619e-07	
7.8999999999999995	0.05976773916780272	0.05907339174184487	0.0006597486823121915	0.0003656906743089279	5.011097347059867e-11	0.0002667236350583184	4.858011600262821e-07	
8.0	0.059765619887371245	0.059073389373600384	0.00066398961131513	0.00036569067431976995	5.011008419716166e-11	0.00026252905072705884	4.418246472335087e-07	
8.1	0.05976353402238665	0.059073387005355894	0.0006681637093830323	0.00036569067433061197	5.010923782811006e-11	0.0002583971124083463	4.020330158318145e-07	
8.2	0.05976148107009523	0.059073384637111405	0.0006722719820251071	0.000365690674341454	5.010843414275907e-11	0.0002543272128374039	3.6602802343792554e-07	
8.299999999999999	0.05975946053284406	0.059073382268866916	0.0006763154245503358	0.000365690674352296	5.0107672930710754e-11	0.0002503187170518179	3.3344932545032035e-07	
8.4	0.05975747191828096	0.059073379900622426	0.0006802950216637831	0.00036569067436313803	5.010695399193084e-11	0.0002463709664017957	3.0397086859725115e-07	
8.5	0.059755514739528094	0.05907337753237794	0.0006842117471236668	0.00036569067437398006	5.0106277136815426e-11	0.00024248328215631886	2.772976276841481e-07	
8.6	0.05975358851532486	0.05907337516413345	0.0006880665634530841	0.0003656906743848221	5.0105642186243386e-11	0.00023865496874411345	2.5316265288076276e-07	
8.7	0.05975169277014784	0.05907337279588896	0.0006918604217008791	0.0003656906743956641	5.010504897161988e-11	0.0002348853166644872	2.3132439799621421e-07	
8.799999999999999	0.059749827034308096	0.05907337042829108	0.000695594261246626	0.0003656906744065061	5.010449733491146e-11	0.0002311736050998718	2.1156430300241652e-07	
8.9	0.0597479908440295	0.05907336806074048	0.0006992690096450283	0.00036569067441734814	5.010398712867168e-11	0.00022751910425883797	1.936846066108778e-07	
9.0	0.05974618374150838	0.05907336569318988	0.0007028855825057695	0.00036569067442819017	5.010351821606343e-11	0.00022392107747545143	1.7750636701048268e-07	
9.1	0.059744405274957335	0.05907336332563928	0.0007064448834050156	0.0003656906744390322	5.010309047087375e-11	0.00022037878308869214	1.628676709570683e-07	
9.2	0.059742654998634424	0.05907336095808868	0.0007099478038254343	0.0003656906744498742	5.0102703777524246e-11	0.00021689147612303383	1.4962201329073012e-07	
9.299999999999999	0.05974093247286649	0.05907335859053808	0.0007133952231212425	0.00036569067446071623	5.010235803108381e-11	0.0002134584097895572	1.3763683066253154e-07	
9.4	0.05973923726404621	0.05907335622298748	0.0007167880085059518	0.00036569067447155825	5.010205313726595e-11	0.00021007883682494708	1.2679217479560183e-07	
9.5	0.0597375689446342	0.05907335385543688	0.0007201270150602833	0.0003656906744824003	5.0101789012436705e-11	0.00020675201068410143	1.1697951200224657e-07	
9.6	0.059735927093145035	0.05907335148788628	0.0007234130857578463	0.0003656906744932423	5.0101565583614954e-11	0.00020347718660067526	1.0810063694210212e-07	
9.7	0.05973431129412468	0.05907334912033568	0.0007266470515067182	0.0003656906745040843	5.010138278847128e-11	0.00020025362252836846	1.0006668974996627e-07	
9.799999999999999	0.05973272113812624	0.05907334675278508	0.0007298297312051168	0.00036569067451492634	5.010124057533066e-11	0.00019708057997462646	9.279726669630044e-08	
9.9	0.05973115622167218	0.05907334438523448	0.0007329619318094192	0.00036569067452576836	5.010113890316904e-11	0.00019395732473731148	8.621961547962903e-08	
10.0	0.05972961614721659	0.05907334201768388	0.0007360444484131083	0.0003656906745366104	5.0101077741614673e-11	0.00019088312755382716	8.026790709701326e-08	
10.1	0.05972810052310034	0.05907333965013328	0.0007390780643354417	0.0003656906745474524	5.010105707094823e-11	0.00018785726467138714	7.488257700526122e-08	
10.2	0.05972660896350348	0.05907333728258268	0.0007420635512183747	0.0003656906745582944	5.010107688210499e-11	0.00018487901834615	7.000972897895422e-08	
10.299999999999999	0.05972514108839281	0.05907333491503208	0.0007450016691309614	0.00036569067456913645	5.010113717667718e-11	0.00018194767727829195	6.560059569891999e-08	
10.4	0.059723696523466895	0.05907333254748148	0.0007478931666800712	0.00036569067457997847	5.010123796691835e-11	0.00017906253698939115	6.161105067250834e-08	
10.5	0.05972227490009408	0.05907333017993088	0.0007507387811264533	0.0003656906745908205	5.01013792757457e-11	0.00017622290014789236	5.800116660084304e-08	
10.6	0.05972087585525847	0.05907332781238028	0.0007535392385057004	0.0003656906746016625	5.0101561136752946e-11	0.0001734280768478095	5.4734815772974776e-08	
10.7	0.05971949903149356	0.05907332544482968	0.0007562952537531662	0.00036569067461250453	5.010178359421638e-11	0.00017067738484543207	5.177930848759814e-08	
10.799999999999999	0.05971814407681862	0.05907332307727908	0.0007590075308321056	0.00036569067462334656	5.010204670310689e-11	0.00016797014975827873	4.9105065883504604e-08	
10.9	0.05971681064467335	0.05907332070972848	0.0007616767628647462	0.0003656906746341886	5.010235052910384e-11	0.00016530570523010145	4.6685323904342566e-08	
11.0	0.0597154983938516	0.05907331834217788	0.0007643036322655618	0.0003656906746450306	5.010269514861158e-11	0.00016268339306545497	4.449586543487547e-08	
11.1	0.05971420698843294	0.05907331597462728	0.000766888810876421	0.0003656906746558726	5.0103080648777323e-11	0.00016010256333696314	4.251477792785916e-08	
11.2	0.05971293609771605	0.05907331360707668	0.00076943296010308	0.00036569067466671464	5.010350712751379e-11	0.0001575625744680951	4.0722234095778456e-08	
11.299999999999999	0.059711685396148406	0.05907331123952608	0.0007719367310527094	0.00036569067467755666	5.010397469352173e-11	0.00015506279329407057	3.910029347253861e-08	
11.4	0.05971045456325711	0.05907330887197548	0.0007744007646722301	0.0003656906746883987	5.010448346631655e-11	0.0001526025951031264	3.763272285906629e-08	
11.5	0.059709243283580606	0.05907330650442488	0.0007768256918869201	0.0003656906746992407	5.0105033576258505e-11	0.00015018136366033087	3.630483385578436e-08	
11.6	0.059708051246598975	0.05907330413622006	0.0007792121337392686	0.00036569067471008273	5.0105625164583664e-11	0.00014779849121573707	3.510333585590498e-08	
11.7	0.05970687814666348	0.059073301767975574	0.0007815607015277788	0.00036569067472092475	5.0106258383441363e-11	0.0001454533784986667	3.4016203028298716e-08	
11.799999999999999	0.05970572368292933	0.059073299399731084	0.0007838719969453913	0.0003656906747317668	5.010693339593094e-11	0.00014314543469958954	3.303255395862882e-08	
11.899999999999999	0.059704587559284095	0.059073297031486595	0.0007861466122173789	0.0003656906747426088	5.010765037614147e-11	0.00014087407744104287	3.21425427441213e-08	
12.0	0.059703469484281596	0.059073294663242105	0.0007883851302389173	0.0003656906747534508	5.010840950919832e-11	0.0001386387327388224	3.133726045205348e-08	
12.1	0.059702369171071884	0.059073292294997616	0.000790588124711467	0.00036569067476429284	5.010921099130875e-11	0.0001364388349545619	3.0608645955731536e-08	
12.2	0.05970128633733532	0.05907328992675313	0.0007927561602785595	0.00036569067477513486	5.011005502981395e-11	0.0001342738267407376	2.994940525553016e-08	
